Om0= 0.2600000     Ob0= 0.4400000E-01 Ode0= 0.740     H0= 0.72000     red=  47.0    
w0= -1.000000     wa=  0.000000     c_s^2(DE)=  1.00    
 0.4957925E-03 =sigma8 at R=8Mpc/h & sigma(R)= 0.1995296E-05 at Rsmooth=   130.     Mpc/h
 #   k/h      Ptotm(k)   Pcdm(k)   Pbaryon(k)   f_cdm   f_baryon  D_c D_b
   0.100000E-03   0.430792       0.430530       0.430529        1.02670        1.02670       0.269224E-01   0.269224E-01
   0.102020E-03   0.439141       0.438875       0.438873        1.02669        1.02670       0.269225E-01   0.269225E-01
   0.104081E-03   0.447652       0.447381       0.447379        1.02669        1.02670       0.269227E-01   0.269226E-01
   0.106184E-03   0.456328       0.456052       0.456050        1.02669        1.02669       0.269228E-01   0.269227E-01
   0.108329E-03   0.465172       0.464891       0.464888        1.02669        1.02669       0.269229E-01   0.269228E-01
   0.110517E-03   0.474188       0.473901       0.473898        1.02669        1.02669       0.269230E-01   0.269230E-01
   0.112750E-03   0.483378       0.483085       0.483083        1.02669        1.02669       0.269232E-01   0.269231E-01
   0.115027E-03   0.492746       0.492448       0.492445        1.02669        1.02669       0.269233E-01   0.269232E-01
   0.117351E-03   0.502295       0.501992       0.501989        1.02669        1.02669       0.269234E-01   0.269234E-01
   0.119722E-03   0.512030       0.511721       0.511718        1.02668        1.02669       0.269236E-01   0.269235E-01
   0.122140E-03   0.521953       0.521638       0.521635        1.02668        1.02669       0.269237E-01   0.269237E-01
   0.124608E-03   0.532068       0.531747       0.531744        1.02668        1.02668       0.269239E-01   0.269238E-01
   0.127125E-03   0.542379       0.542052       0.542049        1.02668        1.02668       0.269241E-01   0.269240E-01
   0.129693E-03   0.552890       0.552557       0.552553        1.02668        1.02668       0.269242E-01   0.269242E-01
   0.132313E-03   0.563604       0.563265       0.563261        1.02668        1.02668       0.269244E-01   0.269243E-01
   0.134986E-03   0.574526       0.574181       0.574176        1.02668        1.02668       0.269246E-01   0.269245E-01
   0.137713E-03   0.585659       0.585307       0.585303        1.02667        1.02668       0.269248E-01   0.269247E-01
   0.140495E-03   0.597008       0.596650       0.596645        1.02667        1.02668       0.269250E-01   0.269249E-01
   0.143333E-03   0.608576       0.608212       0.608207        1.02667        1.02667       0.269252E-01   0.269251E-01
   0.146228E-03   0.620369       0.619998       0.619992        1.02667        1.02667       0.269255E-01   0.269253E-01
   0.149182E-03   0.632390       0.632012       0.632006        1.02667        1.02667       0.269257E-01   0.269256E-01
   0.152196E-03   0.644643       0.644258       0.644252        1.02666        1.02667       0.269259E-01   0.269258E-01
   0.155271E-03   0.657134       0.656742       0.656736        1.02666        1.02667       0.269262E-01   0.269261E-01
   0.158407E-03   0.669867       0.669467       0.669461        1.02666        1.02666       0.269264E-01   0.269263E-01
   0.161607E-03   0.682846       0.682439       0.682432        1.02666        1.02666       0.269267E-01   0.269266E-01
   0.164872E-03   0.696076       0.695662       0.695654        1.02665        1.02666       0.269270E-01   0.269269E-01
   0.168203E-03   0.709562       0.709140       0.709132        1.02665        1.02666       0.269273E-01   0.269271E-01
   0.171601E-03   0.723309       0.722880       0.722871        1.02665        1.02665       0.269276E-01   0.269274E-01
   0.175067E-03   0.737322       0.736885       0.736876        1.02665        1.02665       0.269279E-01   0.269278E-01
   0.178604E-03   0.751606       0.751162       0.751152        1.02664        1.02665       0.269282E-01   0.269281E-01
   0.182212E-03   0.766167       0.765715       0.765705        1.02664        1.02665       0.269286E-01   0.269284E-01
   0.185893E-03   0.781009       0.780549       0.780538        1.02664        1.02664       0.269289E-01   0.269288E-01
   0.189648E-03   0.796138       0.795670       0.795659        1.02663        1.02664       0.269293E-01   0.269291E-01
   0.193479E-03   0.811560       0.811084       0.811072        1.02663        1.02664       0.269297E-01   0.269295E-01
   0.197388E-03   0.827281       0.826796       0.826783        1.02663        1.02663       0.269301E-01   0.269299E-01
   0.201375E-03   0.843305       0.842812       0.842798        1.02662        1.02663       0.269305E-01   0.269303E-01
   0.205443E-03   0.859639       0.859138       0.859123        1.02662        1.02663       0.269309E-01   0.269307E-01
   0.209594E-03   0.876289       0.875779       0.875763        1.02661        1.02662       0.269314E-01   0.269312E-01
   0.213828E-03   0.893261       0.892742       0.892725        1.02661        1.02662       0.269319E-01   0.269316E-01
   0.218147E-03   0.910561       0.910033       0.910016        1.02661        1.02661       0.269323E-01   0.269321E-01
   0.222554E-03   0.928195       0.927658       0.927640        1.02660        1.02661       0.269328E-01   0.269326E-01
   0.227050E-03   0.946170       0.945624       0.945605        1.02660        1.02661       0.269334E-01   0.269331E-01
   0.231637E-03   0.964492       0.963938       0.963917        1.02659        1.02660       0.269339E-01   0.269336E-01
   0.236316E-03   0.983168       0.982605       0.982583        1.02659        1.02660       0.269345E-01   0.269342E-01
   0.241090E-03    1.00221        1.00163        1.00161        1.02658        1.02659       0.269351E-01   0.269348E-01
   0.245960E-03    1.02161        1.02103        1.02100        1.02658        1.02659       0.269357E-01   0.269354E-01
   0.250929E-03    1.04139        1.04080        1.04077        1.02657        1.02658       0.269363E-01   0.269360E-01
   0.255998E-03    1.06155        1.06095        1.06092        1.02656        1.02657       0.269370E-01   0.269366E-01
   0.261170E-03    1.08210        1.08149        1.08146        1.02656        1.02657       0.269376E-01   0.269373E-01
   0.266446E-03    1.10305        1.10243        1.10240        1.02655        1.02656       0.269384E-01   0.269380E-01
   0.271828E-03    1.12440        1.12377        1.12374        1.02654        1.02656       0.269391E-01   0.269387E-01
   0.277319E-03    1.14616        1.14552        1.14549        1.02654        1.02655       0.269399E-01   0.269395E-01
   0.282922E-03    1.16835        1.16770        1.16766        1.02653        1.02654       0.269407E-01   0.269402E-01
   0.288637E-03    1.19096        1.19030        1.19026        1.02652        1.02654       0.269415E-01   0.269410E-01
   0.294468E-03    1.21401        1.21334        1.21330        1.02651        1.02653       0.269423E-01   0.269419E-01
   0.300417E-03    1.23750        1.23682        1.23678        1.02651        1.02652       0.269432E-01   0.269428E-01
   0.306485E-03    1.26144        1.26075        1.26071        1.02650        1.02651       0.269441E-01   0.269437E-01
   0.312677E-03    1.28585        1.28515        1.28510        1.02649        1.02650       0.269451E-01   0.269446E-01
   0.318993E-03    1.31072        1.31002        1.30996        1.02648        1.02650       0.269461E-01   0.269456E-01
   0.325437E-03    1.33608        1.33536        1.33531        1.02647        1.02649       0.269471E-01   0.269466E-01
   0.332012E-03    1.36192        1.36120        1.36114        1.02646        1.02648       0.269482E-01   0.269476E-01
   0.338719E-03    1.38826        1.38753        1.38747        1.02645        1.02647       0.269493E-01   0.269487E-01
   0.345561E-03    1.41511        1.41437        1.41430        1.02644        1.02646       0.269504E-01   0.269498E-01
   0.352542E-03    1.44248        1.44172        1.44165        1.02642        1.02645       0.269516E-01   0.269510E-01
   0.359664E-03    1.47037        1.46961        1.46953        1.02641        1.02644       0.269529E-01   0.269522E-01
   0.366930E-03    1.49880        1.49802        1.49794        1.02640        1.02642       0.269541E-01   0.269534E-01
   0.374342E-03    1.52777        1.52699        1.52690        1.02639        1.02641       0.269555E-01   0.269547E-01
   0.381904E-03    1.55730        1.55651        1.55642        1.02637        1.02640       0.269568E-01   0.269561E-01
   0.389619E-03    1.58740        1.58660        1.58650        1.02636        1.02639       0.269583E-01   0.269575E-01
   0.397490E-03    1.61807        1.61727        1.61716        1.02635        1.02637       0.269597E-01   0.269589E-01
   0.405520E-03    1.64934        1.64852        1.64841        1.02633        1.02636       0.269613E-01   0.269604E-01
   0.413712E-03    1.68120        1.68038        1.68026        1.02631        1.02634       0.269628E-01   0.269619E-01
   0.422070E-03    1.71368        1.71285        1.71273        1.02630        1.02633       0.269645E-01   0.269635E-01
   0.430596E-03    1.74677        1.74594        1.74581        1.02628        1.02631       0.269662E-01   0.269652E-01
   0.439295E-03    1.78051        1.77967        1.77953        1.02626        1.02630       0.269679E-01   0.269669E-01
   0.448169E-03    1.81488        1.81404        1.81389        1.02624        1.02628       0.269697E-01   0.269687E-01
   0.457222E-03    1.84992        1.84907        1.84891        1.02623        1.02626       0.269716E-01   0.269705E-01
   0.466459E-03    1.88563        1.88477        1.88460        1.02621        1.02624       0.269735E-01   0.269724E-01
   0.475882E-03    1.92201        1.92115        1.92098        1.02618        1.02622       0.269755E-01   0.269744E-01
   0.485496E-03    1.95910        1.95824        1.95805        1.02616        1.02620       0.269776E-01   0.269764E-01
   0.495303E-03    1.99689        1.99603        1.99583        1.02614        1.02618       0.269798E-01   0.269785E-01
   0.505309E-03    2.03541        2.03454        2.03433        1.02612        1.02616       0.269820E-01   0.269806E-01
   0.515517E-03    2.07465        2.07379        2.07356        1.02609        1.02614       0.269843E-01   0.269829E-01
   0.525931E-03    2.11465        2.11378        2.11355        1.02607        1.02612       0.269866E-01   0.269852E-01
   0.536556E-03    2.15541        2.15454        2.15429        1.02604        1.02609       0.269891E-01   0.269875E-01
   0.547395E-03    2.19694        2.19608        2.19581        1.02601        1.02607       0.269916E-01   0.269900E-01
   0.558453E-03    2.23927        2.23841        2.23813        1.02599        1.02604       0.269942E-01   0.269925E-01
   0.569734E-03    2.28240        2.28154        2.28124        1.02596        1.02601       0.269969E-01   0.269952E-01
   0.581244E-03    2.32635        2.32550        2.32518        1.02592        1.02598       0.269996E-01   0.269979E-01
   0.592986E-03    2.37113        2.37029        2.36995        1.02589        1.02595       0.270025E-01   0.270006E-01
   0.604965E-03    2.41676        2.41593        2.41557        1.02586        1.02592       0.270054E-01   0.270035E-01
   0.617186E-03    2.46326        2.46243        2.46206        1.02583        1.02589       0.270085E-01   0.270065E-01
   0.629654E-03    2.51063        2.50982        2.50942        1.02579        1.02586       0.270116E-01   0.270095E-01
   0.642374E-03    2.55891        2.55811        2.55768        1.02575        1.02582       0.270148E-01   0.270126E-01
   0.655350E-03    2.60809        2.60731        2.60686        1.02571        1.02579       0.270181E-01   0.270159E-01
   0.668589E-03    2.65820        2.65744        2.65696        1.02567        1.02575       0.270215E-01   0.270192E-01
   0.682096E-03    2.70926        2.70852        2.70801        1.02563        1.02571       0.270251E-01   0.270226E-01
   0.695875E-03    2.76127        2.76056        2.76002        1.02559        1.02567       0.270287E-01   0.270261E-01
   0.709933E-03    2.81427        2.81358        2.81301        1.02554        1.02563       0.270324E-01   0.270298E-01
   0.724274E-03    2.86826        2.86760        2.86699        1.02549        1.02558       0.270362E-01   0.270335E-01
   0.738906E-03    2.92326        2.92263        2.92199        1.02544        1.02554       0.270402E-01   0.270373E-01
   0.753832E-03    2.97930        2.97870        2.97802        1.02539        1.02549       0.270442E-01   0.270412E-01
   0.769061E-03    3.03638        3.03582        3.03510        1.02534        1.02544       0.270484E-01   0.270453E-01
   0.784597E-03    3.09452        3.09401        3.09325        1.02529        1.02539       0.270526E-01   0.270494E-01
   0.800447E-03    3.15375        3.15329        3.15248        1.02523        1.02534       0.270570E-01   0.270537E-01
   0.816617E-03    3.21409        3.21368        3.21281        1.02517        1.02528       0.270615E-01   0.270580E-01
   0.833114E-03    3.27554        3.27519        3.27427        1.02511        1.02523       0.270662E-01   0.270625E-01
   0.849944E-03    3.33814        3.33784        3.33687        1.02504        1.02517       0.270709E-01   0.270671E-01
   0.867114E-03    3.40189        3.40166        3.40063        1.02498        1.02511       0.270758E-01   0.270718E-01
   0.884631E-03    3.46683        3.46667        3.46558        1.02491        1.02504       0.270808E-01   0.270766E-01
   0.902501E-03    3.53296        3.53288        3.53172        1.02484        1.02498       0.270859E-01   0.270816E-01
   0.920733E-03    3.60031        3.60031        3.59908        1.02476        1.02491       0.270911E-01   0.270867E-01
   0.939333E-03    3.66890        3.66899        3.66768        1.02468        1.02484       0.270965E-01   0.270918E-01
   0.958309E-03    3.73874        3.73893        3.73754        1.02460        1.02476       0.271020E-01   0.270972E-01
   0.977668E-03    3.80986        3.81015        3.80868        1.02452        1.02468       0.271076E-01   0.271026E-01
   0.997418E-03    3.88228        3.88269        3.88113        1.02443        1.02460       0.271134E-01   0.271082E-01
   0.101757E-02    3.95602        3.95654        3.95489        1.02434        1.02452       0.271193E-01   0.271139E-01
   0.103812E-02    4.03110        4.03175        4.03000        1.02425        1.02444       0.271254E-01   0.271197E-01
   0.105910E-02    4.10754        4.10832        4.10647        1.02415        1.02435       0.271316E-01   0.271256E-01
   0.108049E-02    4.18535        4.18629        4.18432        1.02405        1.02425       0.271379E-01   0.271317E-01
   0.110232E-02    4.26457        4.26567        4.26358        1.02395        1.02416       0.271443E-01   0.271379E-01
   0.112459E-02    4.34521        4.34648        4.34426        1.02384        1.02406       0.271510E-01   0.271443E-01
   0.114730E-02    4.42730        4.42874        4.42639        1.02372        1.02395       0.271577E-01   0.271508E-01
   0.117048E-02    4.51085        4.51248        4.50999        1.02361        1.02385       0.271646E-01   0.271574E-01
   0.119413E-02    4.59588        4.59772        4.59508        1.02349        1.02373       0.271717E-01   0.271641E-01
   0.121825E-02    4.68242        4.68448        4.68168        1.02336        1.02362       0.271788E-01   0.271710E-01
   0.124286E-02    4.77049        4.77278        4.76981        1.02323        1.02350       0.271862E-01   0.271780E-01
   0.126797E-02    4.86010        4.86265        4.85949        1.02310        1.02338       0.271937E-01   0.271852E-01
   0.129358E-02    4.95129        4.95410        4.95075        1.02296        1.02325       0.272013E-01   0.271925E-01
   0.131971E-02    5.04406        5.04716        5.04361        1.02281        1.02312       0.272091E-01   0.271999E-01
   0.134637E-02    5.13845        5.14185        5.13808        1.02266        1.02298       0.272171E-01   0.272074E-01
   0.137357E-02    5.23446        5.23818        5.23419        1.02251        1.02284       0.272251E-01   0.272151E-01
   0.140132E-02    5.33213        5.33619        5.33196        1.02235        1.02269       0.272334E-01   0.272230E-01
   0.142963E-02    5.43147        5.43589        5.43140        1.02218        1.02254       0.272418E-01   0.272309E-01
   0.145851E-02    5.53251        5.53731        5.53255        1.02201        1.02238       0.272503E-01   0.272390E-01
   0.148797E-02    5.63525        5.64046        5.63541        1.02183        1.02221       0.272590E-01   0.272472E-01
   0.151803E-02    5.73972        5.74537        5.74001        1.02165        1.02205       0.272678E-01   0.272556E-01
   0.154870E-02    5.84595        5.85205        5.84637        1.02145        1.02187       0.272768E-01   0.272640E-01
   0.157998E-02    5.95394        5.96053        5.95451        1.02126        1.02169       0.272859E-01   0.272726E-01
   0.161190E-02    6.06372        6.07082        6.06444        1.02105        1.02151       0.272952E-01   0.272813E-01
   0.164446E-02    6.17531        6.18295        6.17618        1.02084        1.02131       0.273046E-01   0.272902E-01
   0.167768E-02    6.28872        6.29693        6.28976        1.02063        1.02111       0.273141E-01   0.272991E-01
   0.171158E-02    6.40396        6.41279        6.40518        1.02040        1.02091       0.273238E-01   0.273082E-01
   0.174615E-02    6.52106        6.53053        6.52247        1.02017        1.02070       0.273336E-01   0.273174E-01
   0.178143E-02    6.64004        6.65018        6.64163        1.01993        1.02048       0.273436E-01   0.273266E-01
   0.181741E-02    6.76089        6.77176        6.76269        1.01968        1.02026       0.273537E-01   0.273360E-01
   0.185413E-02    6.88365        6.89527        6.88566        1.01943        1.02002       0.273639E-01   0.273455E-01
   0.189158E-02    7.00832        7.02074        7.01055        1.01916        1.01979       0.273742E-01   0.273551E-01
   0.192980E-02    7.13491        7.14817        7.13737        1.01889        1.01954       0.273847E-01   0.273647E-01
   0.196878E-02    7.26344        7.27759        7.26614        1.01861        1.01929       0.273953E-01   0.273745E-01
   0.200855E-02    7.39392        7.40900        7.39686        1.01833        1.01903       0.274059E-01   0.273843E-01
   0.204913E-02    7.52635        7.54241        7.52955        1.01803        1.01876       0.274167E-01   0.273942E-01
   0.209052E-02    7.66075        7.67784        7.66421        1.01772        1.01849       0.274276E-01   0.274041E-01
   0.213276E-02    7.79711        7.81530        7.80085        1.01741        1.01820       0.274386E-01   0.274141E-01
   0.217584E-02    7.93546        7.95479        7.93948        1.01709        1.01792       0.274497E-01   0.274242E-01
   0.221979E-02    8.07579        8.09632        8.08009        1.01676        1.01762       0.274608E-01   0.274343E-01
   0.226464E-02    8.21811        8.23989        8.22270        1.01642        1.01731       0.274720E-01   0.274444E-01
   0.231039E-02    8.36241        8.38552        8.36730        1.01607        1.01700       0.274833E-01   0.274545E-01
   0.235706E-02    8.50870        8.53320        8.51389        1.01571        1.01668       0.274947E-01   0.274647E-01
   0.240467E-02    8.65698        8.68293        8.66247        1.01535        1.01636       0.275061E-01   0.274748E-01
   0.245325E-02    8.80725        8.83471        8.81304        1.01497        1.01602       0.275175E-01   0.274850E-01
   0.250281E-02    8.95950        8.98855        8.96558        1.01459        1.01568       0.275290E-01   0.274951E-01
